# k [h/Mpc] P(k) [h/Mpc]^3
1.00000e-05 5.03877e+01
1.06543e-05 5.35146e+01
1.13513e-05 5.68354e+01
1.20940e-05 6.03623e+01
1.28853e-05 6.41081e+01
1.37283e-05 6.80863e+01
1.46265e-05 7.23114e+01
1.55834e-05 7.67986e+01
1.66030e-05 8.15643e+01
1.76892e-05 8.66257e+01
1.88466e-05 9.20013e+01
2.00796e-05 9.77103e+01
2.13933e-05 1.03774e+02
2.27930e-05 1.10213e+02
2.42843e-05 1.17052e+02
2.58731e-05 1.24316e+02
2.75659e-05 1.32030e+02
2.93694e-05 1.40223e+02
3.12909e-05 1.48924e+02
3.33381e-05 1.58165e+02
3.55193e-05 1.67980e+02
3.78432e-05 1.78403e+02
4.03191e-05 1.89473e+02
4.29570e-05 2.01230e+02
4.57675e-05 2.13717e+02
4.87619e-05 2.26978e+02
5.19522e-05 2.41062e+02
5.53512e-05 2.56019e+02
5.89726e-05 2.71904e+02
6.28309e-05 2.88775e+02
6.69417e-05 3.06692e+02
7.13214e-05 3.25720e+02
7.59877e-05 3.45928e+02
8.09592e-05 3.67389e+02
8.62560e-05 3.90181e+02
9.18994e-05 4.14387e+02
9.79120e-05 4.40092e+02
1.04318e-04 4.67391e+02
1.11143e-04 4.96382e+02
1.18415e-04 5.27169e+02
1.26162e-04 5.59863e+02
1.34416e-04 5.94582e+02
1.43211e-04 6.31450e+02
1.52580e-04 6.70601e+02
1.62563e-04 7.12175e+02
1.73199e-04 7.56320e+02
1.84531e-04 8.03194e+02
1.96604e-04 8.52965e+02
2.09467e-04 9.05810e+02
2.23171e-04 9.61918e+02
2.37772e-04 1.02149e+03
2.53329e-04 1.08473e+03
2.69903e-04 1.15186e+03
2.87562e-04 1.22312e+03
3.06375e-04 1.29877e+03
3.26420e-04 1.37905e+03
3.47777e-04 1.46426e+03
3.70530e-04 1.55468e+03
3.94773e-04 1.65063e+03
4.20601e-04 1.75242e+03
4.48119e-04 1.86041e+03
4.77438e-04 1.97495e+03
5.08674e-04 2.09642e+03
5.41955e-04 2.22522e+03
5.77413e-04 2.36177e+03
6.15190e-04 2.50651e+03
6.55440e-04 2.65988e+03
6.98322e-04 2.82237e+03
7.44011e-04 2.99447e+03
7.92688e-04 3.17669e+03
8.44550e-04 3.36956e+03
8.99806e-04 3.57364e+03
9.58676e-04 3.78949e+03
1.02140e-03 4.01768e+03
1.08822e-03 4.25881e+03
1.15942e-03 4.51347e+03
1.23528e-03 4.78226e+03
1.31610e-03 5.06577e+03
1.40220e-03 5.36462e+03
1.49394e-03 5.67935e+03
1.59169e-03 6.01054e+03
1.69582e-03 6.35869e+03
1.80678e-03 6.72430e+03
1.92499e-03 7.10779e+03
2.05093e-03 7.50949e+03
2.18511e-03 7.92970e+03
2.32808e-03 8.36859e+03
2.48039e-03 8.82620e+03
2.64267e-03 9.30244e+03
2.81557e-03 9.79711e+03
2.99978e-03 1.03098e+04
3.19605e-03 1.08398e+04
3.40515e-03 1.13865e+04
3.62794e-03 1.19488e+04
3.86530e-03 1.25254e+04
4.11819e-03 1.31148e+04
4.38762e-03 1.37152e+04
4.67469e-03 1.43246e+04
4.98053e-03 1.49408e+04
5.30639e-03 1.55612e+04
5.65356e-03 1.61830e+04
6.02345e-03 1.68030e+04
6.41754e-03 1.74179e+04
6.83741e-03 1.80241e+04
7.28476e-03 1.86175e+04
7.76137e-03 1.91938e+04
8.26916e-03 1.97485e+04
8.81018e-03 2.02766e+04
9.38659e-03 2.07726e+04
1.00007e-02 2.12306e+04
1.06550e-02 2.16444e+04
1.13521e-02 2.20077e+04
1.20949e-02 2.23131e+04
1.28862e-02 2.25535e+04
1.37293e-02 2.27218e+04
1.46275e-02 2.28110e+04
1.55845e-02 2.28139e+04
1.66042e-02 2.27245e+04
1.76905e-02 2.25376e+04
1.88479e-02 2.22491e+04
2.00811e-02 2.18566e+04
2.13949e-02 2.13594e+04
2.27947e-02 2.07598e+04
2.42860e-02 2.00639e+04
2.58750e-02 1.92799e+04
2.75678e-02 1.84178e+04
2.93715e-02 1.74947e+04
3.12931e-02 1.65314e+04
3.33405e-02 1.55471e+04
3.55219e-02 1.45618e+04
3.78459e-02 1.36038e+04
4.03220e-02 1.26982e+04
4.29601e-02 1.18633e+04
4.57708e-02 1.11121e+04
4.87654e-02 1.04532e+04
5.19559e-02 9.88644e+03
5.53552e-02 9.39849e+03
5.89768e-02 8.96544e+03
6.28354e-02 8.55359e+03
6.69465e-02 8.12332e+03
7.13265e-02 7.63753e+03
7.59931e-02 7.07315e+03
8.09650e-02 6.43234e+03
8.62623e-02 5.74805e+03
9.19060e-02 5.07805e+03
9.79191e-02 4.48702e+03
1.04325e-01 4.02244e+03
1.11151e-01 3.69447e+03
1.18423e-01 3.46740e+03
1.26171e-01 3.26804e+03
1.34426e-01 3.01865e+03
1.43221e-01 2.68900e+03
1.52591e-01 2.32517e+03
1.62575e-01 2.01393e+03
1.73211e-01 1.80750e+03
1.84544e-01 1.67805e+03
1.96618e-01 1.54391e+03
2.09482e-01 1.35794e+03
2.23187e-01 1.16636e+03
2.37789e-01 1.03137e+03
2.53347e-01 9.41376e+02
2.69922e-01 8.39466e+02
2.87582e-01 7.25019e+02
3.06398e-01 6.39649e+02
3.26444e-01 5.73003e+02
3.47802e-01 4.99954e+02
3.70557e-01 4.37561e+02
3.94801e-01 3.87116e+02
4.20631e-01 3.37504e+02
4.48151e-01 2.95879e+02
4.77472e-01 2.58808e+02
5.08711e-01 2.25779e+02
5.41994e-01 1.97076e+02
5.77454e-01 1.71615e+02
6.15235e-01 1.49368e+02
6.55487e-01 1.29853e+02
6.98373e-01 1.12753e+02
7.44064e-01 9.78200e+01
7.92745e-01 8.47821e+01
8.44611e-01 7.34067e+01
8.99871e-01 6.34996e+01
9.58745e-01 5.48809e+01
1.02147e+00 4.73908e+01
1.08830e+00 4.08881e+01
1.15951e+00 3.52483e+01
1.23537e+00 3.03620e+01
1.31619e+00 2.61325e+01
1.40231e+00 2.24753e+01
1.49405e+00 1.93156e+01
1.59180e+00 1.65883e+01
1.69595e+00 1.42361e+01
1.80691e+00 1.22092e+01
1.92512e+00 1.04640e+01
2.05108e+00 8.96245e+00
2.18527e+00 7.67162e+00
2.32824e+00 6.56273e+00
2.48057e+00 5.61080e+00
2.64286e+00 4.79416e+00
2.81578e+00 4.09406e+00
3.00000e+00 3.49429e+00
