# k [h/Mpc] P(k) [h/Mpc]^3
1.00000e-05 4.78089e+01
1.06543e-05 5.07757e+01
1.13513e-05 5.39266e+01
1.20940e-05 5.72730e+01
1.28853e-05 6.08271e+01
1.37283e-05 6.46017e+01
1.46265e-05 6.86105e+01
1.55834e-05 7.28682e+01
1.66030e-05 7.73900e+01
1.76892e-05 8.21923e+01
1.88466e-05 8.72927e+01
2.00796e-05 9.27096e+01
2.13933e-05 9.84627e+01
2.27930e-05 1.04573e+02
2.42843e-05 1.11062e+02
2.58731e-05 1.17954e+02
2.75659e-05 1.25273e+02
2.93694e-05 1.33047e+02
3.12909e-05 1.41303e+02
3.33381e-05 1.50071e+02
3.55193e-05 1.59383e+02
3.78432e-05 1.69273e+02
4.03191e-05 1.79777e+02
4.29570e-05 1.90932e+02
4.57675e-05 2.02780e+02
4.87619e-05 2.15362e+02
5.19522e-05 2.28725e+02
5.53512e-05 2.42918e+02
5.89726e-05 2.57990e+02
6.28309e-05 2.73998e+02
6.69417e-05 2.90998e+02
7.13214e-05 3.09053e+02
7.59877e-05 3.28227e+02
8.09592e-05 3.48591e+02
8.62560e-05 3.70218e+02
9.18994e-05 3.93185e+02
9.79120e-05 4.17576e+02
1.04318e-04 4.43480e+02
1.11143e-04 4.70989e+02
1.18415e-04 5.00202e+02
1.26162e-04 5.31226e+02
1.34416e-04 5.64171e+02
1.43211e-04 5.99157e+02
1.52580e-04 6.36309e+02
1.62563e-04 6.75761e+02
1.73199e-04 7.17653e+02
1.84531e-04 7.62137e+02
1.96604e-04 8.09372e+02
2.09467e-04 8.59525e+02
2.23171e-04 9.12775e+02
2.37772e-04 9.69313e+02
2.53329e-04 1.02934e+03
2.69903e-04 1.09306e+03
2.87562e-04 1.16071e+03
3.06375e-04 1.23252e+03
3.26420e-04 1.30874e+03
3.47777e-04 1.38964e+03
3.70530e-04 1.47550e+03
3.94773e-04 1.56661e+03
4.20601e-04 1.66329e+03
4.48119e-04 1.76586e+03
4.77438e-04 1.87467e+03
5.08674e-04 1.99009e+03
5.41955e-04 2.11249e+03
5.77413e-04 2.24228e+03
6.15190e-04 2.37988e+03
6.55440e-04 2.52573e+03
6.98322e-04 2.68029e+03
7.44011e-04 2.84404e+03
7.92688e-04 3.01748e+03
8.44550e-04 3.20113e+03
8.99806e-04 3.39554e+03
9.58676e-04 3.60126e+03
1.02140e-03 3.81886e+03
1.08822e-03 4.04893e+03
1.15942e-03 4.29208e+03
1.23528e-03 4.54890e+03
1.31610e-03 4.82002e+03
1.40220e-03 5.10606e+03
1.49394e-03 5.40762e+03
1.59169e-03 5.72529e+03
1.69582e-03 6.05966e+03
1.80678e-03 6.41128e+03
1.92499e-03 6.78063e+03
2.05093e-03 7.16817e+03
2.18511e-03 7.57429e+03
2.32808e-03 7.99927e+03
2.48039e-03 8.44329e+03
2.64267e-03 8.90639e+03
2.81557e-03 9.38851e+03
2.99978e-03 9.88937e+03
3.19605e-03 1.04085e+04
3.40515e-03 1.09451e+04
3.62794e-03 1.14984e+04
3.86530e-03 1.20670e+04
4.11819e-03 1.26493e+04
4.38762e-03 1.32435e+04
4.67469e-03 1.38472e+04
4.98053e-03 1.44578e+04
5.30639e-03 1.50723e+04
5.65356e-03 1.56871e+04
6.02345e-03 1.62985e+04
6.41754e-03 1.69024e+04
6.83741e-03 1.74942e+04
7.28476e-03 1.80691e+04
7.76137e-03 1.86222e+04
8.26916e-03 1.91480e+04
8.81018e-03 1.96412e+04
9.38659e-03 2.00962e+04
1.00007e-02 2.05072e+04
1.06550e-02 2.08684e+04
1.13521e-02 2.11741e+04
1.20949e-02 2.14182e+04
1.28862e-02 2.15948e+04
1.37293e-02 2.16985e+04
1.46275e-02 2.17237e+04
1.55845e-02 2.16643e+04
1.66042e-02 2.15149e+04
1.76905e-02 2.12715e+04
1.88479e-02 2.09310e+04
2.00811e-02 2.04916e+04
2.13949e-02 1.99537e+04
2.27947e-02 1.93200e+04
2.42860e-02 1.85970e+04
2.58750e-02 1.77935e+04
2.75678e-02 1.69196e+04
2.93715e-02 1.59919e+04
3.12931e-02 1.50328e+04
3.33405e-02 1.40627e+04
3.55219e-02 1.31005e+04
3.78459e-02 1.21706e+04
4.03220e-02 1.12956e+04
4.29601e-02 1.04918e+04
4.57708e-02 9.76957e+03
4.87654e-02 9.13457e+03
5.19559e-02 8.58622e+03
5.53552e-02 8.11262e+03
5.89768e-02 7.69317e+03
6.28354e-02 7.29838e+03
6.69465e-02 6.89386e+03
7.13265e-02 6.44817e+03
7.59931e-02 5.94206e+03
8.09650e-02 5.37721e+03
8.62623e-02 4.78090e+03
9.19060e-02 4.20087e+03
9.79191e-02 3.69017e+03
1.04325e-01 3.28751e+03
1.11151e-01 3.00085e+03
1.18423e-01 2.80098e+03
1.26171e-01 2.62835e+03
1.34426e-01 2.41943e+03
1.43221e-01 2.14819e+03
1.52591e-01 1.84989e+03
1.62575e-01 1.59349e+03
1.73211e-01 1.42171e+03
1.84544e-01 1.31401e+03
1.96618e-01 1.20621e+03
2.09482e-01 1.05873e+03
2.23187e-01 9.05732e+02
2.37789e-01 7.96809e+02
2.53347e-01 7.24964e+02
2.69922e-01 6.45677e+02
2.87582e-01 5.56079e+02
3.06398e-01 4.88633e+02
3.26444e-01 4.36926e+02
3.47802e-01 3.80621e+02
3.70557e-01 3.32111e+02
3.94801e-01 2.93356e+02
4.20631e-01 2.55337e+02
4.48151e-01 2.23393e+02
4.77472e-01 1.95166e+02
5.08711e-01 1.69975e+02
5.41994e-01 1.48198e+02
5.77454e-01 1.28888e+02
6.15235e-01 1.12069e+02
6.55487e-01 9.73260e+01
6.98373e-01 8.44380e+01
7.44064e-01 7.31933e+01
7.92745e-01 6.33922e+01
8.44611e-01 5.48507e+01
8.99871e-01 4.74199e+01
9.58745e-01 4.09619e+01
1.02147e+00 3.53545e+01
1.08830e+00 3.04902e+01
1.15951e+00 2.62745e+01
1.23537e+00 2.26244e+01
1.31619e+00 1.94668e+01
1.40231e+00 1.67379e+01
1.49405e+00 1.43813e+01
1.59180e+00 1.23480e+01
1.69595e+00 1.05951e+01
1.80691e+00 9.08498e+00
1.92512e+00 7.78513e+00
2.05108e+00 6.66709e+00
2.18527e+00 5.70616e+00
2.32824e+00 4.88084e+00
2.48057e+00 4.17247e+00
2.64286e+00 3.56488e+00
2.81578e+00 3.04407e+00
3.00000e+00 2.59795e+00
