# k [h/Mpc] P(k) [h/Mpc]^3
1.00000e-05 5.17627e+01
1.06543e-05 5.49749e+01
1.13513e-05 5.83863e+01
1.20940e-05 6.20095e+01
1.28853e-05 6.58575e+01
1.37283e-05 6.99442e+01
1.46265e-05 7.42846e+01
1.55834e-05 7.88943e+01
1.66030e-05 8.37900e+01
1.76892e-05 8.89896e+01
1.88466e-05 9.45118e+01
2.00796e-05 1.00377e+02
2.13933e-05 1.06605e+02
2.27930e-05 1.13221e+02
2.42843e-05 1.20246e+02
2.58731e-05 1.27708e+02
2.75659e-05 1.35633e+02
2.93694e-05 1.44049e+02
3.12909e-05 1.52988e+02
3.33381e-05 1.62481e+02
3.55193e-05 1.72563e+02
3.78432e-05 1.83271e+02
4.03191e-05 1.94643e+02
4.29570e-05 2.06721e+02
4.57675e-05 2.19548e+02
4.87619e-05 2.33171e+02
5.19522e-05 2.47639e+02
5.53512e-05 2.63004e+02
5.89726e-05 2.79322e+02
6.28309e-05 2.96653e+02
6.69417e-05 3.15058e+02
7.13214e-05 3.34605e+02
7.59877e-05 3.55365e+02
8.09592e-05 3.77411e+02
8.62560e-05 4.00824e+02
9.18994e-05 4.25689e+02
9.79120e-05 4.52095e+02
1.04318e-04 4.80137e+02
1.11143e-04 5.09917e+02
1.18415e-04 5.41542e+02
1.26162e-04 5.75126e+02
1.34416e-04 6.10789e+02
1.43211e-04 6.48660e+02
1.52580e-04 6.88875e+02
1.62563e-04 7.31578e+02
1.73199e-04 7.76921e+02
1.84531e-04 8.25067e+02
1.96604e-04 8.76187e+02
2.09467e-04 9.30463e+02
2.23171e-04 9.88088e+02
2.37772e-04 1.04927e+03
2.53329e-04 1.11421e+03
2.69903e-04 1.18315e+03
2.87562e-04 1.25634e+03
3.06375e-04 1.33401e+03
3.26420e-04 1.41645e+03
3.47777e-04 1.50393e+03
3.70530e-04 1.59676e+03
3.94773e-04 1.69525e+03
4.20601e-04 1.79974e+03
4.48119e-04 1.91057e+03
4.77438e-04 2.02812e+03
5.08674e-04 2.15276e+03
5.41955e-04 2.28491e+03
5.77413e-04 2.42498e+03
6.15190e-04 2.57341e+03
6.55440e-04 2.73068e+03
6.98322e-04 2.89725e+03
7.44011e-04 3.07363e+03
7.92688e-04 3.26032e+03
8.44550e-04 3.45787e+03
8.99806e-04 3.66683e+03
9.58676e-04 3.88774e+03
1.02140e-03 4.12118e+03
1.08822e-03 4.36774e+03
1.15942e-03 4.62800e+03
1.23528e-03 4.90254e+03
1.31610e-03 5.19192e+03
1.40220e-03 5.49671e+03
1.49394e-03 5.81746e+03
1.59169e-03 6.15469e+03
1.69582e-03 6.50890e+03
1.80678e-03 6.88054e+03
1.92499e-03 7.26999e+03
2.05093e-03 7.67757e+03
2.18511e-03 8.10353e+03
2.32808e-03 8.54802e+03
2.48039e-03 9.01106e+03
2.64267e-03 9.49261e+03
2.81557e-03 9.99247e+03
2.99978e-03 1.05103e+04
3.19605e-03 1.10457e+04
3.40515e-03 1.15979e+04
3.62794e-03 1.21662e+04
3.86530e-03 1.27495e+04
4.11819e-03 1.33467e+04
4.38762e-03 1.39563e+04
4.67469e-03 1.45768e+04
4.98053e-03 1.52061e+04
5.30639e-03 1.58422e+04
5.65356e-03 1.64825e+04
6.02345e-03 1.71242e+04
6.41754e-03 1.77641e+04
6.83741e-03 1.83988e+04
7.28476e-03 1.90242e+04
7.76137e-03 1.96358e+04
8.26916e-03 2.02287e+04
8.81018e-03 2.07978e+04
9.38659e-03 2.13370e+04
1.00007e-02 2.18403e+04
1.06550e-02 2.23011e+04
1.13521e-02 2.27126e+04
1.20949e-02 2.30672e+04
1.28862e-02 2.33572e+04
1.37293e-02 2.35751e+04
1.46275e-02 2.37134e+04
1.55845e-02 2.37649e+04
1.66042e-02 2.37230e+04
1.76905e-02 2.35823e+04
1.88479e-02 2.33375e+04
2.00811e-02 2.29845e+04
2.13949e-02 2.25214e+04
2.27947e-02 2.19493e+04
2.42860e-02 2.12731e+04
2.58750e-02 2.04998e+04
2.75678e-02 1.96390e+04
2.93715e-02 1.87084e+04
3.12931e-02 1.77296e+04
3.33405e-02 1.67225e+04
3.55219e-02 1.57091e+04
3.78459e-02 1.47201e+04
4.03220e-02 1.37818e+04
4.29601e-02 1.29141e+04
4.57708e-02 1.21320e+04
4.87654e-02 1.14460e+04
5.19559e-02 1.08564e+04
5.53552e-02 1.03494e+04
5.89768e-02 9.89916e+03
6.28354e-02 9.46870e+03
6.69465e-02 9.01428e+03
7.13265e-02 8.49472e+03
7.59931e-02 7.88419e+03
8.09650e-02 7.18501e+03
8.62623e-02 6.43403e+03
9.19060e-02 5.69611e+03
9.79191e-02 5.04417e+03
1.04325e-01 4.53197e+03
1.11151e-01 4.17137e+03
1.18423e-01 3.92233e+03
1.26171e-01 3.70236e+03
1.34426e-01 3.42384e+03
1.43221e-01 3.05324e+03
1.52591e-01 2.64352e+03
1.62575e-01 2.29343e+03
1.73211e-01 2.06184e+03
1.84544e-01 1.91653e+03
1.96618e-01 1.76438e+03
2.09482e-01 1.55265e+03
2.23187e-01 1.33500e+03
2.37789e-01 1.18207e+03
2.53347e-01 1.07972e+03
2.69922e-01 9.63030e+02
2.87582e-01 8.32284e+02
3.06398e-01 7.34996e+02
3.26444e-01 6.58628e+02
3.47802e-01 5.74833e+02
3.70557e-01 5.03439e+02
3.94801e-01 4.45524e+02
4.20631e-01 3.88545e+02
4.48151e-01 3.40767e+02
4.77472e-01 2.98130e+02
5.08711e-01 2.60168e+02
5.41994e-01 2.27134e+02
5.77454e-01 1.97836e+02
6.15235e-01 1.72216e+02
6.55487e-01 1.49742e+02
6.98373e-01 1.30041e+02
7.44064e-01 1.12835e+02
7.92745e-01 9.78064e+01
8.44611e-01 8.46922e+01
8.99871e-01 7.32690e+01
9.58745e-01 6.33295e+01
1.02147e+00 5.46902e+01
1.08830e+00 4.71889e+01
1.15951e+00 4.06824e+01
1.23537e+00 3.50446e+01
1.31619e+00 3.01643e+01
1.40231e+00 2.59438e+01
1.49405e+00 2.22973e+01
1.59180e+00 1.91496e+01
1.69595e+00 1.64347e+01
1.80691e+00 1.40951e+01
1.92512e+00 1.20805e+01
2.05108e+00 1.03472e+01
2.18527e+00 8.85711e+00
2.32824e+00 7.57697e+00
2.48057e+00 6.47799e+00
2.64286e+00 5.53518e+00
2.81578e+00 4.72690e+00
3.00000e+00 4.03446e+00
